 TEMP->  0.50000000000000000     
 DENSITY->   1.2000000000000000     
 N->         864
 CUTOFF->   3.2999999523162842     
 NUM_STEPS->        1500
  0.99390640304923139        2.7496413812284095E-002  0.98660123566251867        4.3741507200055908E-002
  0.97573482740609130        2.7307078419767743E-002  0.94762177469658782        4.3355315920421175E-002
  0.94582103882908464        2.7001634547237998E-002  0.88623348084278863        4.2846509240294095E-002
  0.90471380211451347        2.6597002364587216E-002  0.80688598623213859        4.2306488844065730E-002
  0.85315943220264090        2.6115322487589545E-002  0.71472793268396961        4.1766363810103450E-002
  0.79208131762783740        2.5582452329067411E-002  0.61513420376876216        4.1206600079822894E-002
  0.72255539975516170        2.5026199813576469E-002  0.51333124430237220        4.0586691992702442E-002
  0.64578269863961590        2.4474398395270335E-002  0.41411143284542196        3.9876261644395221E-002
  0.56305999383793037        2.3952948555044463E-002  0.32162797511001096        3.9074616645617337E-002
  0.47574971989678155        2.3483976870589836E-002  0.23925907413238570        3.8213068656144128E-002
  0.38525003154821125        2.3084290195961279E-002  0.16953553611880182        3.7345015234050823E-002
  0.29296585584532558        2.2764309296925300E-002  0.11411712614835941        3.6530088803143915E-002
  0.20028159547615881        2.2527633439802075E-002   7.3812036920814658E-002   3.5820568418626318E-002
  0.10853599279294171        2.2371308170341785E-002   4.8627178004069196E-002   3.5250627043849993E-002
   1.8999527269148567E-002   2.2286750088149038E-002   3.7845821732741064E-002   3.4831114267139383E-002
  -6.7145401990683223E-002   2.2261168586905560E-002   4.0127841128537359E-002   3.4552729832710009E-002
 -0.14882135562596652        2.2279252068877650E-002   5.3626705357487224E-002   3.4389997552623210E-002
 -0.22506972099522371        2.2324876185447075E-002   7.6118699302713422E-002   3.4306822412019648E-002
 -0.29506155609018342        2.2382637266431759E-002  0.10514379431942925        3.4263950351164640E-002
 -0.35810545143339079        2.2439086484108459E-002  0.13814549820859970        3.4226915874213254E-002
 -0.41365249423297573        2.2483610809193810E-002  0.17260850258255778        3.4173977212104439E-002
 -0.46129845722169005        2.2508959219544922E-002  0.20618949588789162        3.4101325497443921E-002
 -0.50078336814110280        2.2511442176783716E-002  0.23682977215939199        3.4022008517406187E-002
 -0.53198864410854185        2.2490843604035082E-002  0.26284482120968888        3.3959786106807756E-002
 -0.55493199890503675        2.2450086206509075E-002  0.28298599610305430        3.3937923272306152E-002
 -0.56976034890987204        2.2394689149552990E-002  0.29646925316414585        3.3968361071744835E-002
 -0.57674095715908869        2.2332058264135417E-002  0.30297207282604144        3.4044555376776052E-002
 -0.57625106114136526        2.2270653472266515E-002  0.30259945817288952        3.4140863997329948E-002
 -0.56876623169199314        2.2219088527305433E-002  0.29582558005889753        3.4220133001063087E-002
 -0.55484770728258725        2.2185231323610107E-002  0.28341828992232337        3.4248110564076333E-002
 -0.53512894200740257        2.2175384829525108E-002  0.26635432377955293        3.4205766247719413E-002
 -0.51030160009401559        2.2193635326529335E-002  0.24573074945985990        3.4095271502454352E-002
 -0.48110121945945600        2.2241441140150489E-002  0.22268103154155189        3.3938109239288028E-002
 -0.44829275876937702        2.2317509315358888E-002  0.19830312419065332        3.3767493747996695E-002
 -0.41265623416365388        2.2417968347842290E-002  0.17360221911991652        3.3619087599746779E-002
 -0.37497264155675025        2.2536799184000849E-002  0.14944755481852509        3.3520846031107443E-002
 -0.33601035717099065        2.2666454116694965E-002  0.12654712133856572        3.3489941360579055E-002
 -0.29651220307010323        2.2798572712583426E-002  0.10543616111470462        3.3532931908286295E-002
 -0.25718336068726777        2.2924707583369043E-002   8.6475150187861727E-002   3.3643935386093740E-002
 -0.21868031116173994        2.3036990505636793E-002   6.9860592069695485E-002   3.3805968727762162E-002
 -0.18160097298836225        2.3128692795502795E-002   5.5643427184796944E-002   3.3993046879647701E-002
 -0.14647619827145272        2.3194658519389229E-002   4.3756638592274362E-002   3.4180588311668994E-002
 -0.11376276895418323        2.3231602159286657E-002   3.4041745071129885E-002   3.4349493679920240E-002
  -8.3838008475366141E-002   2.3238269447620613E-002   2.6273112863172344E-002   3.4485717534269426E-002
  -5.6996093951863849E-002   2.3215463924399726E-002   2.0183677316347067E-002   3.4582781701500066E-002
  -3.3446121238902692E-002   2.3165945648750096E-002   1.5491372223661837E-002   3.4641811950538413E-002
  -1.3311937854212363E-002   2.3094209469142157E-002   1.1920360031514801E-002   3.4671353402210947E-002
   3.3662796814935068E-003   2.3006152145203219E-002   9.2177908927230656E-003   3.4684531215316269E-002
   1.6628762155386296E-002   2.2908640542123750E-002   7.1656195199304674E-003   3.4697590014673679E-002
   2.6591293960356564E-002   2.2808995439168433E-002   5.5890171274763350E-003   3.4728723223917200E-002
   3.3438902021792637E-002   2.2714413314916835E-002   4.3586163435139769E-003   3.4795724376867593E-002
   3.7418252583433315E-002   2.2631360373132344E-002   3.3908653603340563E-003   3.4912535405489858E-002
   3.8828952096038045E-002   2.2564988229466339E-002   2.6418485060578510E-003   3.5087373956785427E-002
   3.8013971683823561E-002   2.2518631848566933E-002   2.0981371645992543E-003   3.5316828545085534E-002
   3.5349432185363128E-002   2.2493451866471056E-002   1.7644812231017370E-003   3.5586033529133081E-002
   3.1233997394216541E-002   2.2488271997628401E-002   1.6484074913819436E-003   3.5874832043594020E-002
   2.6078126841214421E-002   2.2499638680124084E-002   1.7491137390417981E-003   3.6159631138492535E-002
   2.0293437589990866E-002   2.2522101580675385E-002   2.0520009901909804E-003   3.6411565237975188E-002
   1.4282414534293001E-002   2.2548683017460602E-002   2.5269997916085802E-003   3.6596610614157594E-002
   8.4286942347955585E-003   2.2571482817149723E-002   3.1298725684216085E-003   3.6678703176090212E-002
   3.0881266380953123E-003   2.2582352557010382E-002   3.8059671817061921E-003   3.6627601229664325E-002
  -1.4192039845571250E-003   2.2573575228588220E-002   4.4956585104332899E-003   3.6426614831607446E-002
  -4.8158454464505372E-003   2.2538495380804376E-002   5.1412103054548890E-003   3.6076037584830252E-002
  -6.8726081473777971E-003   2.2472058895055196E-002   5.6928900610427801E-003   3.5591546221560966E-002
  -7.4128683254467056E-003   2.2371236561326151E-002   6.1158298728895390E-003   3.4997155656867333E-002
  -6.3154869320094153E-003   2.2235314960652130E-002   6.3949589602905190E-003   3.4320475429486789E-002
  -3.5163198500138743E-003   2.2066045989879286E-002   6.5353407286751165E-003   3.3592061060976855E-002
   9.9167165527739220E-004   2.1867648193668404E-002   6.5615291098842900E-003   3.2843313109604505E-002
   7.1596712056609512E-003   2.1646655093881868E-002   6.5162081235583492E-003   3.2104509980665052E-002
   1.4885550249230895E-002   2.1411605973593640E-002   6.4571741921693789E-003   3.1405110524856353E-002
   2.4017611024342501E-002   2.1172580124352861E-002   6.4529046697232965E-003   3.0778276763349165E-002
   3.4359415049296509E-002   2.0940585124660880E-002   6.5741456074767165E-003   3.0263640149064613E-002
   4.5675562662337639E-002   2.0726822935613148E-002   6.8829185568784826E-003   2.9904201942298814E-002
   5.7698274234796475E-002   2.0541877610374026E-002   7.4247054246819356E-003   2.9740479831664710E-002
   7.0134609703259687E-002   2.0394888106178548E-002   8.2232949942139481E-003   2.9800076228999797E-002
   8.2674153797966832E-002   2.0292787155462965E-002   9.2788827222071817E-003   3.0086359736914835E-002
   9.4996986376234674E-002   2.0239693192361422E-002   1.0562402570123053E-002   3.0570172666621931E-002
  0.10678175403199620        2.0236534174687293E-002   1.2015984637300112E-002   3.1194887915494254E-002
  0.11771366140101025        2.0280953312005603E-002   1.3556837216543223E-002   3.1891322599041906E-002
  0.12749220614081147        2.0367502444535505E-002   1.5084529270566568E-002   3.2594762826893921E-002
  0.13583848880233659        2.0488083399143802E-002   1.6491236009154839E-002   3.3257728542762467E-002
  0.14250193946231610        2.0632565304270673E-002   1.7672028988071378E-002   3.3855756583218800E-002
  0.14726631915372504        2.0789493802059057E-002   1.8535903520337016E-002   3.4385133268846568E-002
  0.14995486991735316        2.0946820757254160E-002   1.9013150658137346E-002   3.4853506035389385E-002
  0.15043450681265930        2.1092608372807624E-002   1.9061085387232442E-002   3.5269431875204420E-002
  0.14861896991787701        2.1215679733813716E-002   1.8667364770195552E-002   3.5635545740034844E-002
  0.14447088057004551        2.1306196466754294E-002   1.7853605328390504E-002   3.5946376873611116E-002
  0.13800267121734036        2.1356151685880908E-002   1.6675843084505263E-002   3.6189963788748065E-002
  0.12927638421362503        2.1359770113736569E-002   1.5222506663129548E-002   3.6350842513364678E-002
  0.11840236167787797        2.1313804294645029E-002   1.3605936834175367E-002   3.6412062111357717E-002
  0.10553687165279235        2.1217722866993534E-002   1.1954755261244053E-002   3.6356780021943119E-002
   9.0878738114433560E-002   2.1073787408001660E-002   1.0401577108029936E-002   3.6171236537258337E-002
   7.4665065460229038E-002   2.0887005563511529E-002   9.0706477403999040E-003   3.5847516880742877E-002
   5.7166165762021631E-002   2.0664946186836848E-002   8.0679387899467003E-003   3.5387983431371582E-002
   3.8679811830889539E-002   2.0417402585143317E-002   7.4736340922242689E-003   3.4809643273643810E-002
   1.9524951645447378E-002   2.0155892286335027E-002   7.3351272287239151E-003   3.4147153757134181E-002
   3.5027577760296645E-005   1.9892991999857567E-002   7.6644581805670542E-003   3.3452459192975473E-002
  -1.9448950497695173E-002   1.9641523906510455E-002   8.4390654726169030E-003   3.2789974927984418E-002
  -3.8585426557621677E-002   1.9413632839133967E-002   9.6036832119812798E-003   3.2227549122105632E-002
  -5.7039264136077662E-002   1.9219824907980243E-002   1.1074324101179497E-002   3.1823933981334887E-002
  -7.4488508553228375E-002   1.9068064307201069E-002   1.2747517984156794E-002   3.1616308311516565E-002
  -9.0630802958530335E-002   1.8963043064137389E-002   1.4508317966994947E-002   3.1615740569935463E-002
 -0.10518932805154585        1.8905738083317605E-002   1.6236962071898790E-002   3.1808349243518289E-002
 -0.11791814920571790        1.8893338016152630E-002   1.7818893727598133E-002   3.2162196437138607E-002
 -0.12860687152842007        1.8919565044711838E-002   1.9149653031532862E-002   3.2636561467103482E-002
 -0.13708452147723549        1.8975348715878401E-002   2.0140140340371666E-002   3.3187865083422328E-002
 -0.14322259108042201        1.9049751448355978E-002   2.0723855250034014E-002   3.3773087686489081E-002
 -0.14693719943883549        1.9131013701022378E-002   2.0859495590169339E-002   3.4349895776571000E-002
 -0.14819034269407161        1.9207589529542587E-002   2.0531952382971733E-002   3.4877076141764836E-002
 -0.14699021866659281        1.9269073657718027E-002   1.9754634350891802E-002   3.5316323283786498E-002
 -0.14339063110191810        1.9306960382389160E-002   1.8569473420359070E-002   3.5634287368857813E-002
 -0.13748949816736222        1.9315204014423545E-002   1.7045798495352024E-002   3.5805340580140496E-002
 -0.12942650504322317        1.9290576632438161E-002   1.5275870929326692E-002   3.5814651287641136E-002
 -0.11937995808401644        1.9232827027490518E-002   1.3366236240831863E-002   3.5660737057390909E-002
 -0.10756291358544996        1.9144643926013470E-002   1.1429497843342995E-002   3.5357011961101290E-002
  -9.4218666718512173E-002   1.9031426479153471E-002   9.5751601763514899E-003   3.4932672419904706E-002
  -7.9615697563756541E-002   1.8900866555832577E-002   7.9013839598884045E-003   3.4431966084343998E-002
  -6.4042180122180395E-002   1.8762349811332187E-002   6.4872660971147158E-003   3.3908830841084994E-002
  -4.7800165872916404E-002   1.8626196679071172E-002   5.3893222477748182E-003   3.3419928829101650E-002
  -3.1199560250991611E-002   1.8502783238487572E-002   4.6392918873747061E-003   3.3017122657107136E-002
  -1.4552014991091421E-002   1.8401601379617650E-002   4.2421141935102616E-003   3.2741721011862054E-002
   1.8351422510140562E-003   1.8330347182135588E-002   4.1759975503209952E-003   3.2619921860602828E-002
   1.7664818456955351E-002   1.8294141577045762E-002   4.3976573712971199E-003   3.2660422986808615E-002
   3.2655788421685226E-002   1.8294989542206173E-002   4.8472393948208259E-003   3.2853084608600577E-002
   4.6547939571276113E-002   1.8331558445738291E-002   5.4549483271673777E-003   3.3170635926170651E-002
   5.9107025005898359E-002   1.8399310640492453E-002   6.1454906645445210E-003   3.3570964941810513E-002
   7.0128832549042591E-002   1.8490970147506978E-002   6.8440515116304943E-003   3.4004243761023949E-002
   7.9442690861256438E-002   1.8597252324504123E-002   7.4799927976581986E-003   3.4420819989224437E-002
   8.6914247792809179E-002   1.8707753801304416E-002   7.9921391865869426E-003   3.4780442202774230E-002
   9.2447472164385716E-002   1.8811894985694435E-002   8.3291046848343996E-003   3.5056432327709830E-002
   9.5985849566792444E-002   1.8899820764016625E-002   8.4535274621380056E-003   3.5237559874696692E-002
   9.7512759041486680E-002   1.8963190853523687E-002   8.3450420155796543E-003   3.5326490989102698E-002
   9.7051038258204630E-002   1.8995816078956146E-002   8.0017164687629892E-003   3.5335560991296068E-002
   9.4661761082406939E-002   1.8994117726268630E-002   7.4382507873085070E-003   3.5280387714806051E-002
   9.0442266232702032E-002   1.8957399860524381E-002   6.6853505261957160E-003   3.5175579527546789E-002
   8.4523492804150696E-002   1.8887928751664548E-002   5.7878917776093665E-003   3.5031638803824261E-002
   7.7066688493011015E-002   1.8790815635801917E-002   4.8016385318511859E-003   3.4855436218399934E-002
   6.8259566635210531E-002   1.8673700237818995E-002   3.7910203083550559E-003   3.4654558396258563E-002
   5.8311997979582371E-002   1.8546233208426788E-002   2.8230772837992304E-003   3.4440684181551696E-002
   4.7451333298507120E-002   1.8419360871083732E-002   1.9585668751926333E-003   3.4228758375574993E-002
   3.5917459421361000E-002   1.8304435723548888E-002   1.2466106230388182E-003   3.4034263121940973E-002
   2.3957695936069601E-002   1.8212204480107852E-002   7.2142942711642555E-004   3.3873055418519725E-002
   1.1821643658465461E-002   1.8151758992563400E-002   4.0027007141931061E-004   3.3761108833793810E-002
  -2.4390333764453721E-004   1.8129571286833436E-002   2.8378804027978134E-004   3.3714017107757024E-002
  -1.1999873551208138E-002   1.8148745829858096E-002   3.5734825234418120E-004   3.3742822041562030E-002
  -2.3219561222135417E-002   1.8208608927231348E-002   5.9375719431602365E-004   3.3850239523092393E-002
  -3.3692903158762159E-002   1.8304705406987216E-002   9.5641742877755251E-004   3.4029880308924697E-002
  -4.3230306793584042E-002   1.8429201404299315E-002   1.4015474343966460E-003   3.4267793799847450E-002
  -5.1665960907609103E-002   1.8571625887422300E-002   1.8812486019113364E-003   3.4545543122377752E-002
  -5.8860572114067325E-002   1.8719834493383984E-002   2.3452978061211278E-003   3.4840540093003691E-002
  -6.4703483871628317E-002   1.8861069988907915E-002   2.7439982343826093E-003   3.5123621845332534E-002
  -6.9114150389088760E-002   1.8983009218875635E-002   3.0347750726230629E-003   3.5362159228704490E-002
  -7.2042951869332628E-002   1.9074715012040749E-002   3.1871390566698731E-003   3.5525441694838324E-002
  -7.3471352890327496E-002   1.9127446112880017E-002   3.1819370720465321E-003   3.5589372490733205E-002
  -7.3411421377916869E-002   1.9135304226846075E-002   3.0135808017844653E-003   3.5545490221056027E-002
  -7.1904737882832914E-002   1.9095711405458262E-002   2.6918565683554550E-003   3.5405990406392439E-002
  -6.9020736129550925E-002   1.9009713698289500E-002   2.2396359340474317E-003   3.5201438905043514E-002
  -6.4854525197926491E-002   1.8882099616375093E-002   1.6895666664011684E-003   3.4973410517614809E-002
  -5.9524252974017096E-002   1.8721308606099930E-002   1.0788483071319719E-003   3.4764916249823384E-002
  -5.3168078687965276E-002   1.8539091673417073E-002   4.4415684778938711E-004   3.4613453199405314E-002
  -4.5940826840751778E-002   1.8349879236657950E-002  -1.8092825999903363E-004   3.4546859773136818E-002
  -3.8010398794983205E-002   1.8169819803529604E-002  -7.6778968713863587E-004   3.4576768122358499E-002
  -2.9554018337736083E-002   1.8015485947836408E-002  -1.2936610991745065E-003   3.4694302527851925E-002
  -2.0754388230191847E-002   1.7902308035846581E-002  -1.7410527432350036E-003   3.4871125041980998E-002
  -1.1795834896849371E-002   1.7842882809130281E-002  -2.0977286529245865E-003   3.5064345789952926E-002
  -2.8605150944581124E-003   1.7845391157062612E-002  -2.3597538442689170E-003   3.5229110806689161E-002
   5.8752399131284244E-003   1.7912407986824159E-002  -2.5324521485131386E-003   3.5328266402807423E-002
   1.4244369470405322E-002   1.8040351018934413E-002  -2.6307248632344202E-003   3.5336062970581159E-002
   2.2092251865607305E-002   1.8219691898024214E-002  -2.6746019179768317E-003   3.5242882714148299E-002
   2.9279536190556704E-002   1.8435883056520035E-002  -2.6848298156829089E-003   3.5057637081647879E-002
   3.5684588873768769E-002   1.8670808790383568E-002  -2.6803260570472803E-003   3.4806105828052609E-002
   4.1205514717598930E-002   1.8904495361333935E-002  -2.6760394485195850E-003   3.4525669590299006E-002
   4.5761722350261755E-002   1.9116830936711772E-002  -2.6820425140704892E-003   3.4255957952995637E-002
   4.9295012999645005E-002   1.9289122089937556E-002  -2.7035607842884409E-003   3.4028731788528201E-002
   5.1770180451833431E-002   1.9405398630335895E-002  -2.7392919649915975E-003   3.3861026384005358E-002
   5.3175119767524488E-002   1.9453450316289728E-002  -2.7782740964100716E-003   3.3757310209269489E-002
   5.3520448635090936E-002   1.9425620943260214E-002  -2.8035019888857219E-003   3.3709546432926604E-002
   5.2838657993557740E-002   1.9319398586629257E-002  -2.7952335844943338E-003   3.3699543502441580E-002
   5.1182818602075082E-002   1.9137829166955275E-002  -2.7330427826823098E-003   3.3705197928966674E-002
   4.8624878369054970E-002   1.8889755839172628E-002  -2.5969986696073640E-003   3.3708277519465986E-002
   4.5253597034144347E-002   1.8589852231871078E-002  -2.3690894802255555E-003   3.3699209580174715E-002
   4.1172172274184196E-002   1.8258372796570627E-002  -2.0365766461254925E-003   3.3679722740099130E-002
   3.6495616364691633E-002   1.7920496035809176E-002  -1.5934100633838108E-003   3.3664385638336486E-002
   3.1347946995014808E-002   1.7605099733785216E-002  -1.0431548000936570E-003   3.3679323031483875E-002
   2.5859257583641555E-002   1.7342815857400905E-002  -4.0051541420130541E-004   3.3755506790351990E-002
   2.0162733402150097E-002   1.7163318222837756E-002   3.0914081608300072E-004   3.3919439936210168E-002
   1.4391678825244747E-002   1.7092034196904304E-002   1.0536298639230747E-003   3.4184524698975531E-002
   8.6766180588391736E-003   1.7146802249218086E-002   1.7978831804164406E-003   3.4544892321716376E-002
   3.1425290711669567E-003   1.7335255598094516E-002   2.5067085832638889E-003   3.4974520895780445E-002
